ppg_2
-1609.794620292424
-1049.9041389624215
-991.1598268817394
-1567.0785759082373
-1442.8461342111539
-1430.662046212426
-1308.5769721185586
-1789.6318118119534
-1765.0543517900526
-1013.1382730710538
-1177.8994658924944
-1561.6185737755086
-855.7349005282272
-1380.1937902297832
-1086.7086222964792
-1132.3555055248432
-1120.1064489906616
-1574.16787581872
-1178.4799714080475
-1523.6486576071668
-1028.5219867539302
-911.4963189383101
-990.1841539296391
-1390.6584008401455
-1217.8367879284071
-1048.188849732907
-1131.052315121506
-1329.7164946427174
-1284.1506685733318
-1170.1362286537192
-1037.6828278954736
-879.6299743899194
-1020.8773464466063
-901.1809572063149
-984.0775374744588
-1009.887809309662
-1172.7993799993512
-1452.5615898491365
-1398.3188494766073
-1311.543815404273
-1199.149145532018
-1501.3024387921153
-1030.9239577885062
-903.1222411952747
-1167.0880152430057
-973.8893553130728
-1158.59727542093
-1172.9138078289268
-892.7603517902618
-875.6606963111102
-1105.1095651783098
-1082.4371438447076
-1236.283972600003
-1682.1837662444877
-1326.1782724577183
-1044.9847438034483
-1100.3422043606583
-1102.2736083905613
-941.1254736442233
-1580.0584116209645
-1020.7953847912676
-1325.7279806628178
-798.865482577386
-1744.941507822816
-1220.7625842079874
-1005.4789102003316
-878.6444796958544
-1073.7555640231876
-1044.7655107994103
-1474.5276216429634
-947.5109399209579
-918.8612006322071
-1599.4216625858644
-927.6986706512088
-1002.7663265678036
-1168.6162540705295
-915.2720931650882
-1000.0487551211968
-1502.4807909678223
-1075.97250493677
-1014.5322882481626
-1046.7615477318127
-1171.653342907776
-1122.0903788131627
-1386.8023172089531
-1496.027907954088
-903.5477951825756
-976.8785391544371
-1744.676122164088
-1305.854151726584
-1093.190355657443
-1568.7878859383172
-1006.6937760660811
-1001.7936775202269
-1022.5870128947914
-904.8004480059586
-1068.1836964795484
-998.5943001476528
-1181.9591797233154
-1193.2010137171121
-1527.5980674618672
-1553.8132223601522
-1165.612173986961
-1075.3096939886639
-994.1927484102965
-1114.9538810614042
-1570.254070768243
-1111.1757068590641
-945.3112686138608
-1083.3040343651917
-1014.1000979751508
-1091.0785984117267
-1022.5702143140061
-1180.616764053822
-1624.8792490774517
-999.5681987832844
-1164.5745463350659
-1095.4989613269695
-1099.9647676879545
-1768.0762168213755
-982.9784627918364
-1030.8809811240483
-1081.6380698290575
-1402.6229992431872
-1190.591802288539
-1243.828808450508
-1138.7804812096772
-1111.4697397963291
-1038.9573233183903
-1092.6719092668156
-905.6719680896928
-956.9710115659805
-1084.3277360947745
-1172.839675838579
-1176.1536408916534
-1350.237411909842
-1330.3553439084142
-907.2888177031609
-881.2825340866905
-1063.0037249633463
-1134.2391405121946
-1683.250820101473
-1032.7829419442105
-1041.7776776967978
-1201.2501833998779
-1181.6135445928571
-1677.8820959506697
-883.1051855197416
-1294.4843041634454
-1030.7068621411138
-1042.8193670213557
-1299.0222560567913
-1127.002552537305
-1099.3568950876247
-1083.3131802326411
-994.6128367949271
-1175.439026404475
-1030.1623874183692
-1236.9358353925709
-1055.6809553936928
-1143.8487741133754
-1073.599821127834
-1088.2559960305045
-1003.8597822489181
-968.3375180470111
-875.8759953919429
-1079.2379613509163
-1044.0549871482262
-892.56876423932
-906.9942655120094
-1693.362642957289
-1081.3809294019497
-1091.5466377321839
-1093.5299111292638
-1062.4778288695143
-1327.9798822113291
-1115.8847680528347
-1064.65895861289
-1339.6600179685277
-996.3624091419697
-942.8143416882137
-1156.5408211658607
-1380.6893265354452
-1145.1463370340985
-1151.677709741759
-1473.7868058440622
-1110.203620445372
-1003.8064542695106
-1169.713894932176
-1012.4912257081702
-1092.4582921412095
-1069.2095520839123
-988.5501272745653
-1548.5159519147016
-1633.4737581604695
-965.136121721993
-883.5686659167002
-899.7317312852882
-1484.615549952339
-1752.9534975026704
-841.7227680376076
-1431.883618974208
-1134.3615079372337
-1064.2749556969657
-1312.933061627076
-951.0916746941622
-982.8004330854667
-970.9589761381324
-1058.2504810451521
-1507.007380744573
-1084.3625417211033
-1702.748818350077
-1048.300878282731
-1317.3200846549657
-1446.1671574923935
-1638.4780048634107
-968.4962332615928
-1199.880549790128
-1161.5818582818456
-1710.9779811587046
-1132.0671664377303
-1337.3223811942896
-977.9929454056237
-1656.1418345407574
-1080.2734201653554
-1156.2039785815077
-1215.6047420264392
-1715.388444997896
-1460.5669104658975
-1167.576939500306
-1122.2148799750526
-1036.2380019015964
-1540.7785482835613
-806.2194982640991
-1044.5478062960142
-979.5447503814623
-1167.5181920518141
-1014.5013793088856
-980.8006647297673
-1235.172588353089
-1020.5435433594197
-910.1711092263747
-895.8413568014073
-1751.082128671398
-1020.503301215888
-858.9392582224701
-962.2308650838174
-1820.7551200284445
-1662.5485843886245
-764.3104560661302
-1118.036651714407
-977.1352504170405
-1180.0082421956179
-1159.9017317267283
-984.9299406820995
-1495.190975770344
-1457.3486721471236
-1247.1223488435287
-1491.8170274194185
-1174.366840071856
-1017.1275907592304
-1026.1390148508322
-895.5003641864524
-946.6740314157445
-1013.8410916502208
-1603.9911632289577
-870.4721927510262
-1543.8143503608103
-973.8513891609659
-1738.3396150821263
-1729.192047692686
-1337.7942364476414
-1080.9566653668155
-1514.9306457038972
-1206.3900306502017
-1159.9584914017846
-1195.6134293427208
-1107.0048265394098
-1201.3122274254463
-1093.6289676408464
-1260.9481286022788
-1048.9834327054539
-1725.1437457520954
-1158.0602454377522
-1134.008043554261
-1203.9238372484842
-1187.0993711353176
-1267.3464845466906
-1209.6075118763974
-1203.3165938164004
-937.6450156474671
-1068.6207620114162
-1255.0363156832243
-1317.848720633838
-909.671857948368
-1450.283214368186
-1083.6139703745175
-872.6921787251393
-895.7042305290644
-906.7812061354871
-852.1841770630754
-1160.7307781763636
-903.6604859122153
-1649.8962487410417
-1423.797226590646
-1496.848222602223
-1025.163615339096
-1109.3819813219322
-871.2362919334824
-1043.7001756958834
-1038.1213939153135
-1072.3258397835707
-1540.1981348893007
-1138.6295602579542
-1105.2710940252532
-1039.3230013036277
-1130.893351137699
-1005.0717113474694
-1034.655192201568
-1077.3627710513247
-1114.4210898513652
-1482.3702990008733
-1084.028304101034
-1533.3207452433237
-1297.9939098680472
-1105.57656734313
-1220.3671023756233
-1192.734020314133
-941.2234710910983
-1055.7697925291293
-948.7102425888726
-1185.7080458409785
-1045.465529806292
-1105.1991890531397
-1790.6105765535503
-1326.48564343784
-967.3676148184927
-898.552969546903
-1003.8515014744054
-1149.6337981113427
-1176.1613734674527
-1378.08105418579
-1135.3590326630056
-1123.9173441178193
-1325.4721478918746
-1009.2183686365247
-1024.6044951209158
-1083.961708716881
-1487.8219138959187
-1074.5895367065884
-911.7784065803721
-960.4811410684416
-997.6699069965581
-768.5300554814244
-1018.7721145745659
-1696.7233709286386
-1148.3478058227024
-913.836560886039
-883.008530849085
-1032.0802686023312
-1111.6051251789468
-979.7803018814068
-965.3777478189894
-1043.2535807287218
-1200.541526101912
-1766.2764560446433
-1004.5986261901176
-1143.7299875261629
-1043.389253373295
-1303.5405213010383
-887.7360008576132
-1340.1711410869639
-872.679982366259
-889.8271956763183
-1071.2798862111788
-1090.9666339779596
-1172.77329963266
-1482.4667384949503
-1310.2161905701673
-1074.231566375722
-1029.0477085689372
-1160.7674415557585
-1251.191310321694
-929.0293674876382
-1085.8500084998352
-1062.4514062355292
-880.7534204070938
-901.0085098555212
-1693.6422200235534
-1623.680589426055
-973.9402943153002
-1380.7942697376823
-860.5037045143291
-966.552343938897
-1025.099556730811
-1729.2343655961386
-1208.865065767556
-1027.8226552754115
-1048.3705539177101
-954.2896924934098
-1180.4802280341357
-979.9273503185976
-1644.2600116892743
-884.7819786019545
-1252.308151697788
-1764.6764107297322
-1542.496332294088
-1000.25008024526
-903.26948261908
-989.0334185097392
-1433.5176549057794
-1584.6991598579448
-1091.1003393821566
-1100.8378091537513
-944.7182918814602
-1018.7554127804626
-1251.9468323494405
-1194.4116002224969
-1132.4498773935322
-1031.4461287395786
-965.9847825333991
-1042.3692609823604
-1161.5183153539226
-1117.04150354904
-1129.93550363985
-961.7165640919982
-1175.3409408184546
-943.8970644026681
-1200.8880978384313
-1131.9923117839148
-975.8157157241575
-1369.0822214257707
-901.5113516533173
-913.3269308094845
-1197.9805862340233
-987.9667785895692
-1031.5177278820324
-1001.9234147745955
-1156.1509284912618
-1039.073478931464
-1048.3984871187354
-1120.193009115593
-908.0484431057681
-975.6945821084702
-1108.263595302467
-1176.2687328133397
-1003.045547902738
-1277.3523295063417
-980.6787947515053
-744.1954348417003
-873.8497792008387
-1078.4867262683028
-926.8887936567652
-1241.2344816335462
-1142.3887303165993
-1040.4633059698376
-1291.2311234387214
-1466.1479958688046
-995.6232299427436
-1085.6946513264202
-767.4680764472755
-1545.5686559485105
-1091.6994206401184
-788.4793033520392
-1505.0275486435878
-1116.716424669702
-1553.04998947715
-1063.417663509917
-1290.5310048806311
-1010.9547826635912
-1128.2440018863253
-1080.0029034005001
-1035.547714660542
-910.7972743908576
-1625.7946251932128
-1092.7776338661
-1610.0402873907883
-1213.4622782359259
-1134.4157415105924
-766.6915613120493
-1050.8166526016262
-939.2871339238831
-1481.785315702042
-990.4409659405981
-889.841357395985
-891.9442838372174
-995.8937148314591
-760.3734236285034
-1080.0248099010996
-1652.734588573256
-1430.4835289537148
-963.4370711466972
-1589.0296412477805
-1219.959332600471
-1003.5348798482402
-951.7443620384684
-1212.2917545638606
-969.2872130539963
-1337.3461436324014
-1328.538838425651
-1616.7001218763871
-892.1411574427564
-923.8201679707288
-1568.3648221543124
-1096.2728866339016
-1096.2909859594392
-1428.4392000442865
-859.1194606244492
-1172.4703939642818
-1237.7304421795939
-1075.2629794076136
-1329.1338138750227
-1212.1134538920185
-1176.52044456924
-1472.9894698861513
-884.2545034383758
-905.3397800294713
-973.5088744941638
-1252.2025863807248
-1033.1545145468158
-898.5147866954082
-1009.1746287547024
-799.0494723285211
-1393.9931269155188
-869.8656582404328
-1004.9455687195918
-773.9216829920465
-1336.3647081123538
-935.5687398994096
-1362.988907636765
-1524.9776518994533
-1009.502195194571
-1667.8618596807526
-974.1397451549383
-1034.5723405346198
-1303.5285714050278
-1332.1015520275191
-1443.5936348978335
-1007.6734049256619
-859.4273968868567
-893.8101480402845
-1163.4444073163572
-1044.416492058361
-998.4016628668847
-1001.9387454186651
-1015.046114398899
-849.0286520164643
-991.3261489711952
-1022.6754207338997
-842.9387741407662
-1201.3661569005174
-1102.8604790610768
-1179.425634933817
-1035.9807553153191
-1121.017765375924
-1016.6710084177008
-1777.538017045518
-877.4053902208675
-1014.4881732047822
-1558.2069029978893
-1025.1379804021954
-966.5190879945509
-1030.5877422872406
-1362.5208398949528
-1014.609617340534
-927.1855637227334
-1039.5218349229888
-1118.1875013712997
-1048.1788825184467
-1153.9964306550798
-1205.3477636802634
-1009.4729893903523
-1017.9584911197952
-912.1930194235556
-1005.9708152128094
-1146.6378354907695
-1029.7198562508681
-1120.105795296275
-959.5814242394387
-1582.2899540514438
-970.6206218988448
-1551.1610892080496
-1268.186054736699
-1011.0966658708049
-1015.1358556810799
-1082.444535557642
-1224.7129596095454
-998.7916078227908
-1252.0167857247702
-1112.950654485786
-1180.3657489307654
-1161.2067257852248
-1143.710257361215
-769.7301179859398
-1076.5406955846515
-1330.742440341321
-1108.1648606774222
-1011.586731624057
-1020.605078162203
-1231.704834712231
-1390.7727453755062
-1124.8455976609735
-907.2712862509466
-1068.353219867279
-1190.0806615842287
-981.3107516313462
-1131.332321140226
-1034.8522161348071
-1208.2685497084885
-1012.8883635215856
-1012.8636674825303
-1141.1589597052762
-1025.9853509699242
-894.1395000479611
-1356.733890226195
-1015.1779810086152
-1042.362035985518
-1631.0190948627182
-1137.6614773611568
-878.2648652034701
-1513.0139970321175
-1096.6459762536442
-885.9696313745299
-806.6132066623147
-1014.796224444149
-1213.8035517048181
-899.3514146612202
-943.5765654693352
-1471.7023994081133
-1274.094062054063
-921.7407129791856
-1626.7567929673755
-883.4741350615756
-1075.2122024891485
-1105.6879294475966
-906.2076382605917
-900.1731939133845
-1525.7514775496013
-1212.737946039892
-892.4199763393556
-900.8145038993896
-894.9157734080054
-1050.0593945608966
-1094.3349124031336
-1075.3905449521458
-941.4341058532127
-1016.4635380769452
-1196.5115684273057
-1000.284813728637
-880.833349698176
-1249.4370275343497
-997.5604486091263
-1065.8044995818873
-1249.9806566911811
-990.8952855793086
-1127.4586775535906
-909.1931918009593
-1111.0976901084812
-1280.4401703907517
-1116.7185771790216
-748.1854458731178
-918.0914851537703
-1008.9692716366814
-1073.7824072474177
-1189.5902987325348
-1103.9075885504021
-1044.6935684023235
-1051.6349764911831
-1031.4551376579577
-940.4274607831052
-1430.5991756159788
-1003.389999958175
-1143.0046717034845
-1332.500945231775
-1005.6737232338962
-1173.6355215660915
-1127.3550121514352
-1035.9730092243758
-1036.3024424797843
-988.6180365791708
-895.3346416232764
-991.5404258787058
-1226.105967203857
-1031.547118289376
-897.7595234601489
-851.4249077195071
-1328.613986735629
-1473.2567891642823
-866.9356290428658
-1136.3279287436965
-848.9801230877198
-1155.3508566325263
-803.8218147582162
-1036.5620487646217
-991.7179543292549
-1207.2401101271637
-1412.956459175778
-888.2313769346775
-890.5160913658117
-903.7944019616777
-872.1955334268074
-866.5448872113889
-1000.6537017291681
-1308.0215618981874
-994.8639598166542
-1026.260192413142
-1358.9141008363117
-987.4860809355445
-1016.1920526619225
-1023.3144063128705
-1238.5173197696479
-1131.829601469843
-1040.7340478590743
-1367.6393177816726
-1007.6749856253354
-993.7677353163052
-1027.9269566023943
-1083.206436846369
-1031.8575343207947
-976.6714256656352
-974.3113492293635
-872.7479806497817
-859.7070907650668
-1004.0327702097287
-1054.2964424547324
-893.3596502856349
-1052.2209793626585
-1648.4283124035303
-1540.684204356979
-841.1612197151475
-881.9061022692832
-894.2086761609817
-1689.2866633237168
-919.0123053251751
-745.991627868599
-1060.6884722027078
-882.6964161959498
-1007.534519847228
-673.1667585062945
-996.6709360427602
-867.5751390947999
-865.0409611702129
-1390.4356119414622
-1264.0234229415923
-892.2856325498473
-1132.4031228375275
-835.1301962097971
-1070.171109591652
-902.5495321269976
-873.6624626098582
-865.0320696578158
-1101.286857394678
-1111.4495836557078
-966.098344692238
-1149.4303481699349
-1567.9668189637898
-1160.0512931791538
-741.4279862638485
-902.0721782237683
-1106.6804227390903
-887.4411287512598
-1189.587688643047
-977.2703131284748
-1427.6318638061045
-752.1659037165607
-1044.6759488739822
-1115.6725063828976
-1282.2983379704428
-782.9778865501557
-984.0485140507899
-1132.7847162351125
-1032.2800259557603
-1002.7243634362085
-1272.9560498014741
-1225.5486332761966
-901.0752381267284
-751.671324711281
-755.6149059962971
-1066.6749569034114
-1038.6641406193146
-919.3107459128348
-891.3978754691717
-762.0185490598155
-885.4746984431614
-1381.8539856613413
-968.4471383639234
-1055.6308035456666
-856.1210975533612
-1230.762372425195
-839.8055589206822
-962.397546828139
-877.5880446541602
-1219.6152502579241
-942.4369715748185
-1049.054657024984
-847.1179874798755
-1032.734876951792
-1218.6467506076413
-864.1542240162349
-1030.1479043325305
-1112.5082073541514
-1140.1928006461433
-1168.5557416006193
-1160.8673484222863
-994.2761444560873
-761.5174583292378
-1294.5186450155422
-904.0982102652242
-1006.8853319337154
-814.3003896357737
-1261.0269034064997
-1009.363209006436
-1075.233792750556
-1146.655778097672
-851.8354672499268
-923.2112184532715
-779.9184525438301
-642.1132503610792
-1276.4918576149514
-632.8157987810638
-1143.221182435319
-872.8520841064286
-634.2234491591003
-1004.6516854630656
-934.5246340927355
-902.0527677501675
-851.333898707247
-1031.2482988526942
-1136.139782860974
-933.1000796338259
-890.0581199987325
-1207.5201977889851
-765.0150347595214
-820.1856202928482
-865.7352045247773
-1056.1634453091258
-1443.7857565087518
-1038.0389677573773
-878.7504563287146
-1033.3157681268233
-1451.6281052589304
-892.2461607560203
-1024.1609294566786
-963.7957062294506
-756.5515019903858
-760.0404641208828
-1018.4968927329406
-1270.109781249787
-1103.7310395232473
-1720.8484649451038
-1024.5703096481927
-757.427728559344
-1126.9136401025603
-974.5232887916408
-887.471561774592
-758.8328762578797
-1631.0026084265678
-912.435677334041
-1185.1560863716277
-789.068494614708
-1403.6959456297386
-760.2314710582029
-1166.8892359126269
-887.6856213720015
-773.9469277510758
-1024.2978056524687
-1286.612030859728
-751.5658612025161
-881.9892340550965
-920.6226529355039
-820.2384023632751
-1313.3989922761366
-1036.7493925266465
-816.8430930885748
-750.1008873513191
-1523.8752233305954
-1041.44131565494
-1008.3558440832269
-755.3756563385147
-906.0161441659237
-1051.1927641523298
-795.3804024711443
-899.376410891814
-1409.8201490651202
-718.3400006018153
-1045.6963450498076
-878.2827172124671
-1216.6201709769628
-636.3424198725384
-1012.9274909723803
-643.2899157176608
-1218.439836343825
-1156.2034176263514
-1070.5632646923489
-777.1573036774917
-1033.929605977571
-1123.0001914262584
-1761.1464644926511
-963.9660296291948
-1035.9180289730982
-645.2873887482885
-1137.646605517835
-823.5880572229772
-884.446128281804
-1329.715945631434
-993.8284228717549
-1357.1438161833082
-935.3296035474175
-1068.7368415329158
-971.4040089047639
-973.3768599691487
-1162.0977451444035
-1048.2137658635445
-988.5007795800525
-1131.6825327998295
-1019.984637133086
-1010.1424896625351
-1284.6226804950295
-759.3527116469538
-1053.7363594877795
-756.7980470968097
-902.211461995116
-1319.0580630599534
-1166.0948058902895
-969.2864210144282
-904.4496170318707
-846.911219539025
-1302.816734092108
-1046.4475579076175
-1049.6340322287072
-956.2847602154887
-826.4500455555121
-775.4765509089864
-882.7006837068354
-1067.9301052950418
-1021.8822498353895
-646.3458127093966
-761.5732074498477
-887.9662560294372
-1136.7077550142023
-1036.4479420080168
-506.39994858763947
-773.6138510147806
-1132.6707442990964
-1244.122463823221
-670.6194964175578
-1052.6969233395666
-1460.7577512693342
-886.3189969608391
-1031.5551935140938
-921.2869181218888
-784.6706656071398
-910.9665902800551
-890.5553124301127
-1041.235777886598
-1058.020888296008
-897.7997388846803
-1065.5667311950094
-1006.3401151016674
-763.6104425909011
-950.0782367850671
-640.555090363968
-900.8654812469227
-774.8001612189939
-757.9389666379448
-1028.253843386251
-1331.8403050020997
-1064.2984897841984
-656.1497465668238
-820.2867848951992
-923.2872331325766
-1181.0992099046848
-1099.6547334846239
-939.4133020119224
-1124.752555361114
-1219.9588502153988
-650.5899037967264
-1187.6748242269105
-513.5758729957043
-984.0464851572034
-1013.1317617304218
-935.6741607585776
-764.7781314381945
-1301.4751900210483
-1063.733130739364
-1001.6498972522129
-1022.0674446166394
-1105.2074798194437
-736.8849509370908
-761.2058550694023
-1023.085619533977
-676.9511874189252
-1163.27254790338
-1039.4973048172276
-1027.2627017861842
-914.4919721413696
-638.5756932667496
-783.9505450249652
-1074.2522634615304
-776.1363876428361
-777.9438730374604
-1218.6799394880084
-513.1794752914781
-1253.3504718381232
-1104.835886521913
-784.3135435080237
-1027.3868671955156
-1227.2448621865092
-671.6271553820226
-976.7633034706694
-786.4396854294909
-787.0546483773226
-638.2701877003594
-1198.858740138649
-772.3918809036079
-1062.349997005495
-757.013799929937
-997.5364587983023
-659.3711334130405
-1297.4508203756768
-761.5949083947261
-1051.235881513106
-1032.1230530700402
-877.7738930219
-1071.2594773020153
-1279.7416782487849
-910.9766353821642
-1296.5976766891038
-892.5593317528484
-900.967665395218
-1697.06389398892
-878.4207656860492
-643.3495360153161
-1038.5132156943466
-1206.7599717602939
-1020.5625510811269
-1367.6289606150128
-1122.219741485762
-911.6241872030182
-1447.5269681625437
-1080.2126227666668
-765.1307111216064
-1025.9930091512454
-1143.1345784288687
-638.8917370033037
-1340.6046527453173
-936.2085319030682
-769.1790385366112
-636.2016688608196
-1017.2808505583648
-876.880771478045
-752.3359296697689
-1255.9782986315652
-889.3413700616703
-648.190755840351
-822.8045325232546
-756.2972900159286
-646.8705383004237
-913.5544013592637
-1609.2722659185633
-983.5261465009393
-615.9249619348369
-892.3547974231101
-1123.6754766693807
-894.322305960628
-766.6686062602423
-686.1003509989653
-992.8218391782178
-955.4986232971955
-1326.2531083990264
-907.6300492072727
-1206.7762134637119
-1078.069397098993
-978.420356035536
-783.4517834651413
-1153.1408412114156
-811.8246344000596
-943.7788221901326
-772.8719017362354
-808.2417794310827
-520.1354791758617
-905.1306543337214
-662.8118387298664
-768.548987428741
-918.259571669473
-631.8525290945057
-906.5103753673159
-638.1782520343164
-979.9759895466902
-1164.2694422711463
-790.682338323268
-766.500861193028
-1045.2551809034285
-1202.0721547840428
-1025.235185851074
-1143.9898108427653
-639.081378934236
-765.280579141921
-781.5233600549487
-880.5199937336307
-1384.6845412879723
-771.2139144448465
-637.423789216689
-1297.6216415657705
-642.0112764783375
-907.3964932562229
-643.7852718017683
-1050.2357086200645
-762.5381377384127
-914.0258753584077
-1057.4737823108799
-634.1736794392348
-576.2277530922948
-949.15234187854
-763.1053591823164
-919.0162711357045
-763.8317238950435
-604.9780243557051
-936.0145729258811
-875.593290714658
-509.57962253867237
-1082.992204340538
-698.1337650843981
-1087.966230697496
-711.1937346468699
-1146.7411063475906
-1142.0022889460333
-1333.0385958593122
-884.7857356941554
-1158.4137682816936
-1415.9474917705847
-512.5365937635374
-944.3224560881469
-640.2960170726766
-894.8385666310442
-514.4497186599657
-940.6467603733507
-1578.825068490666
-1043.5294504229582
-845.8168182975728
-1223.817724072612
-906.6692550128785
-1309.9668111509297
-1670.6677464540892
-790.8643524919781
-1189.82823813083
-884.9083226779906
-1009.394785878413
-1344.4605765983379
-901.063312403079
-797.1158960810491
-685.9669496370122
-772.0865356462783
-1346.0693991750024
-879.1164751082367
-1130.9556487176503
-1293.781462139004
-1064.4683317099068
-1033.6127684193852
-1084.4532242335051
-686.075802097376
-1016.9092235442026
-1088.6342019743242
-912.1428280458371
-1029.702421497579
-635.4205146260066
-830.0515059324895
-889.7080859209199
-954.7638661672908
-1067.408221317369
-1099.510921957725
-906.6533555405383
-915.2589257445634
-991.2923506095741
-969.8527543445823
-937.2417109136131
-1787.8268360870268
-762.3110380843685
-799.6459803381954
-1089.604415869216
-1103.3349922389602
-776.8168566517727
-946.4903582587187
-905.322290214691
-898.710212564326
-1049.986136782891
-1083.0727884023356
-1056.3532965371985
-892.9619238293707
-902.2913379135052
-788.4148147223792
-777.7736633523172
-641.70032395866
-1111.6295572327774
-641.0091232011061
-641.7228605369813
-976.379699067322
-1225.0507289176003
-632.0360673967997
-1057.2556212091433
-770.9688813020739
-1142.971389309068
-629.7402415286393
-500.6375672116015
-639.2014442810009
-1032.8729054860444
-783.1894025526781
-906.5003584583416
-897.5271771735833
-754.9574600422956
-1109.5835705435043
-509.30846828817005
-1174.4812654141426
-776.3832726659678
-1045.2522479175825
-1220.5641530462422
-984.8457370467036
-1078.2229586668573
-791.3182899987219
-652.4707897435186
-928.3878302183459
-994.3528361684208
-781.2908345839309
-669.8873412837863
-764.3052406830685
-520.2598527844376
-788.1130374377458
-1522.764459804502
-791.4422441026205
-782.1666982984327
-524.65852993056
-768.0776761612472
-528.1405013731043
-1423.301161828444
-1115.360338557501
-993.1153707287747
-756.5428846862046
-791.5013606721633
-1071.40263211641
-908.0538369908285
-1112.2126703862355
-517.605748631381
-1063.723611194871
-920.4750948717298
-761.7988859449068
-1110.181802059719
-1354.3530303730545
-797.977465041225
-736.320749080928
-947.7894343924106
-1161.4360445015566
-1168.9711375102231
-647.5638908609792
-664.9510080589731
-857.9367659557669
-974.8738975133523
-791.412953662976
-703.8065147382761
-1032.35820893159
-666.7273562208848
-649.1658260493157
-933.33514945817
-636.2276051666726
-1286.312968928884
-790.946230140089
-779.2341380417515
-647.6284866920336
-824.2380482133725
-937.1041510336195
-850.8492635599638
-961.2928733310672
-1097.3849121481232
-803.8986386550353
-642.2484303544725
-637.1706118829351
-1108.4818636695202
-1002.0759694191732
-645.8641199157305
-668.3531479295877
-546.4852635382767
-936.0925399248841
-530.9975881283798
-1199.4462795728746
-850.4807509253629
-624.8650502204255
-792.6895532716107
-973.0666934065645
-642.1176661029803
-1039.7329550509555
-999.7770580689386
-798.2874156703731
-530.8636942603371
-641.4414315609374
-768.2709991510064
-897.4290615450678
-517.7186035695647
-1014.1910542204802
-943.5159396739627
-823.5431760306624
-1380.5382772788275
-1113.9556459878293
-936.9745498424894
-1075.8383528568304
-645.9528519798997
-517.9608261335873
-844.1882198855366
-642.0515560382069
-1078.1615300351934
-966.2934403898198
-909.9372905667889
-523.4234062189344
-955.9901865820987
-642.9813690430992
-798.259995977754
-484.6063797506984
-938.3610154154958
-1036.912327625118
-435.2220011511963
-751.710794513229
-775.9668530891356
-1039.6079454385317
-652.0007962216132
-1057.8206288215365
-1065.7090775864447
-522.3533215408709
-391.43199450417467
-1042.1156959885093
-908.6507706523755
-1183.3590725797853
-1152.58299561482
-838.206271547988
-771.8658509239652
-990.5025967112778
-1075.5324165631362
-853.1585055963134
-833.4375177528019
-780.0539180487476
-639.5408598277152
-903.2660664327753
-569.7538322063531
-1259.960003882945
-530.3410230032706
-902.8646544154952
-520.799766476526
-642.1635776411746
-1084.0772672302423
-774.181589441138
-1062.0221114397793
-1080.1171414730602
-781.2622512123445
-425.0037744770502
-1063.266980345499
-1000.9525179794285
-671.5099347729848
-965.1441425283148
-788.9133743427976
-794.6018092870653
-1043.2267860722307
-397.92940029381026
-649.1992242598053
-1702.900400765705
-933.4024463316729
-803.3890075059204
-1774.9442410423862
-1258.3678639647396
-799.8984260352277
-1054.1264966636156
-951.4406508645975
-650.2097947702316
-536.8838707359245
-976.4423849619089
-1192.3383573517444
-815.4039581641969
-891.7249293856938
-938.2777018704162
-1649.7395398677354
-1020.871026666846
-824.641670554593
-970.676100904223
-688.0556568141416
-1190.0726137663778
-808.2765561148657
-906.328050384514
-1567.2256242904527
-1144.846572224742
-1049.1979350873387
-783.8386518390074
-1141.317034879345
-662.7009026289561
-1112.8610973662485
-802.7047598768861
-693.5599369237527
-941.9066091142329
-1133.4637254087681
-1108.7225342239235
-1128.9239880735884
-1006.4171570273397
-910.9729337287591
-1103.6340267234111
-1218.9597324278861
-1044.5964090814036
-950.7285297195126
-943.4789644100699
-1056.006273522004
-1084.8020587963852
-1033.644094827532
-656.0312057673194
-658.1926593391083
-674.1622750564035
-726.1378675138425
-657.7946980908998
-1065.1712967284068
-906.1112583120944
-1057.4668500662715
-1257.5825199108722
-1048.0247339758014
-802.7575492977744
-781.4446916629877
-1120.8721596987175
-534.3280771536047
-526.6410855956664
-1070.4870068320993
-529.0084024849937
-935.6328687838144
-656.9446025495931
-1013.6423531741038
-1091.4888929927881
-510.10634139564826
-618.3576129046573
-1146.6378137122256
-1091.7904013009074
-813.7355556603064
-1049.6173770206656
-1216.842827842803
-1201.3148465193644
-1225.555386831702
-388.43374824731376
-924.9012637947192
-965.8764134019713
-1101.4670176784805
-523.2320544846243
-1219.8879522846335
-802.1997782998421
-1063.3745251843682
-1190.4870403279874
-1159.8527134436956
-951.9315856462247
-808.0976052653109
-714.522713156734
-920.3549464598349
-785.6327504118564
-784.4061809763438
-783.1061842725651
-1111.891963640635
-1016.8897173187823
-780.2732356050379
-799.3531911227932
-655.715052070826
-815.5667961077709
-1094.662311155727
-799.7867217896439
-903.6758012677775
-510.9570312911162
-918.9411262796352
-522.6559734721932
-982.271230858008
-1114.245647260222
-877.995846090108
-530.7049785884296
-1233.8795368437684
-1117.7175694001228
-651.433984989863
-762.6406976895146
-841.3274708760932
-1048.6151057145983
-531.775668884762
-394.6512046738912
-811.1419482660527
-664.1345655074359
-658.6761745192889
-532.7167706182813
-1070.3540585120736
-910.743702662299
-948.6969483805547
-818.9475863246073
-581.2106482065201
-811.978271703545
-810.6469899264193
-528.4784810099228
-1113.763228875621
-645.5568578490495
-946.5426418881415
-1200.0060841413306
-950.5272256825422
-1099.3259610133905
-994.5682328072788
-1626.8996986543893
-703.8609099431551
-415.31792390847227
-1282.2966386165585
-1047.7752252755404
-1236.5030536595934
-514.0589660436086
-1294.266449914132
-1223.73769229995
-1130.498543807961
-560.8803067649618
-990.7218711766387
-450.4963022834219
-1131.3592475308467
-1674.7700467018753
-783.0765473232794
-539.7107942792037
-783.9615291204975
-618.4094764620946
-661.5066747613131
-980.4892842753624
-676.1144328119975
-660.5093707736607
-789.5876053157405
-966.1932966189147
-667.4244632614937
-1308.214936705388
-843.5377037214812
-660.6218411165211
-685.5118946224217
-1160.1548256247984
-658.8048887973641
-396.95808442807345
-947.726984535881
-528.854306210353
-807.710947447293
-1053.0285682087867
-534.944440494533
-626.9395416289572
-1084.089120647458
-786.6509086035032
-794.5791142623723
-823.3035220217838
-1204.4460636644735
-1194.6734417325745
-800.6875145977168
-968.7961781064956
-1492.9306264739253
-806.9888527553392
-1061.830903933654
-1047.9308323187538
-1197.3074658384455
-817.0675475124548
-1081.777092156576
-1253.4412357335043
-699.534863996829
-1331.2550048078908
-1248.4583555950362
-1284.591678131024
-870.2136116190038
-1196.26731155732
-1036.429611776812
-870.7423379744235
-1190.1135930338091
-985.9577803559879
-538.8861990857448
-675.4251228978352
-810.3341153835155
-1174.3846369428413
-897.6880387667516
-719.2069978130077
-803.2571220865566
-656.578805106791
-529.7225081447787
-1453.1516652521354
-525.9135970736312
-1111.6612094815819
-1309.4073280986888
-1147.0683272792087
-981.9441361401932
-646.8953987711575
-411.3749967494301
-650.0483488810227
-524.0463282575918
-1179.8438162630675
-651.5280447860644
-941.7161904998017
-825.5251589806654
-1042.4308144131858
-1138.8532257481147
-668.7708685628677
-1118.3961941710054
-998.501097188522
-1089.0506549887577
-768.9666923748185
-792.4169353291907
-672.9202446878926
-526.6649292161968
-535.6848438666622
-638.6971235323541
-982.0556501376892
-1074.619677405268
-1076.1100531563236
-1083.391304702192
-916.9907411658382
-533.9905402263227
-1115.9066101233457
-625.3532371322508
-665.702948185373
-970.0328513198646
-833.1827477055119
-955.0676533661194
-1604.4096271542717
-941.3765292823468
-1379.8116681737442
-986.6173069022061
-1720.800279247451
-1004.2021577189402
-531.1316788341899
-944.1432049026191
-1162.6871156939974
-1079.598818670648
-1197.0444943461462
-1345.347684031957
-1038.9986679437438
-815.2262892780226
-693.0136432078899
-1275.741849017092
-668.653886015344
-1093.5106923836993
-793.0385509958554
-1267.3325562990844
-628.9450515702491
-791.2775329240701
-941.2181497600182
-996.4098833892648
-694.1395305829301
-669.8162244430465
-1128.8845478397623
-1102.3679443097544
-995.2104520847481
-977.9509030104371
-963.0613067299854
-940.4764233473348
-955.3588107835367
-645.7615569567288
-1223.3367252453595
-1007.7640382494413
-1137.5468033591649
-803.9346523887089
-656.6870715811397
-1005.0856160140445
-820.5665110861246
-844.1735814147683
-918.6474701532126
-669.3731538834633
-803.1421562335938
-716.8041195474016
-693.6564475589447
-919.6079385992804
-781.0442738424758
-533.0433239430374
-536.8620737750146
-534.3831021334619
-782.5937527488022
-823.4250345475996
-580.2903092005137
-541.807302829062
-1123.330464399854
-754.8864940500825
-741.2103366255903
-656.3184538732999
-521.8135359349425
-662.6921110029631
-992.5317775975304
-469.4965271355599
-952.5561755446853
-788.2248163503311
-917.7029925303328
-763.2020785741354
-665.2421593513947
-679.736749416533
-652.0717612227738
-898.9928559274701
-427.3228123283093
-917.2379603388221
-1070.5726284812588
-797.7120014132398
-820.43364391876
-784.8271729473627
-739.8485750497135
-809.6431542998203
-509.3097671973881
-943.7497233040503
-430.02715037281024
-522.5093082262683
-652.0223961884664
-1034.166220058038
-686.0214377821396
-397.0236001691556
-655.6850780367022
-398.4664568475383
-892.2581514507539
-523.5549336260883
-417.3986117187472
-686.4485862181257
-761.5677046373219
-964.4633218108753
-929.8209535097226
-693.7873214884424
-837.350476691622
-658.700246439674
-653.2800149065902
-524.4143004425005
-985.7647074673124
-646.103562969352
-653.7006064984066
-528.6895591361551
-1363.1849805108052
-651.4143743683218
-509.6632288609901
-812.9065520023028
-567.6347983585181
-664.4149917713594
-665.8118301383773
-853.4709579614548
-1040.6350551172343
-950.2951529593762
-1114.7665574036594
-660.9091081332604
-1104.7331318818249
-555.7384968227237
-399.8867364959138
-1390.9291048897762
-638.1899632479912
-1003.7616268841717
-693.8087942869876
-879.4647903800957
-667.0932453010624
-1105.4627220804778
-590.1138000334464
-796.8211231385201
-660.395402307294
-789.6108836257877
-697.5068756564579
-909.1937827777392
-840.8853877670413
-667.8594677648814
-987.4593790677259
-776.9643564679767
-740.7200661352895
-1084.388193236913
-988.6932349218001
-666.3837321722722
-1238.7045341891148
-939.0489254395033
-830.7457312224241
-830.1883814612893
-822.3544317970903
-787.4024362339021
-803.1045093220778
-829.3082346094234
-804.7325675330704
-656.3029461350866
-987.811461165517
-650.5421455339311
-517.1827741584549
-840.557756020059
-748.8438766946662
-945.0656664594163
-642.6798887977303
-958.1432983472639
-524.2410268584912
-400.228613755919
-925.8893684164997
-770.4485787558712
-410.7747154095456
-768.6467726712564
-812.087789305682
-770.5650363164143
-855.469174418199
-795.1273749477513
-564.1972047047182
-531.860090259511
-815.9481086175588
-798.2822686948064
-912.9770448107978
-1001.545845407735
-963.8071725718889
-529.1536925541766
-525.2547214180722
-642.5554000800753
-657.3163730491934
-530.3241068817221
-927.9910644564839
-399.08257057182846
-930.7255661418175
-840.1506988867827
-673.5054660125254
-675.8261647291465
-1160.4606930833243
-897.1369915993281
-395.9942363056123
-397.8889703175955
-798.2220024901545
-741.2594825729897
-803.2858665845952
-532.3036157243164
-668.4352693633878
-971.1741366221951
-404.06056494215585
-781.3071765976299
-832.5033082079489
-1038.4317668994527
-406.957031649266
-531.8150482168256
-666.5508476530329
-856.0752463420997
-399.71511245457646
-1250.954404386717
-818.1093332803041
-936.4512302977274
-712.0316581333235
-536.9969116084851
-523.6555341246996
-797.9419747640774
-1016.2059875646142
-744.4535762753275
-533.7717454691822
-1074.256766009337
-668.1142605523868
-942.3750312416616
-1065.3000649553633
-555.3403108147154
-971.305115264242
-1083.5194970667378
-1081.7476391059338
-396.4522109230097
-961.1742370612087
-529.1742571090859
-925.7067842489307
-688.7971338685472
-979.9656120026543
-788.1663755439438
-683.070211203614
-657.9050987924937
-662.8584491182788
-791.4279994903441
-785.4173772509789
-809.1293524763238
-525.5044611108119
-780.7007156334911
-1057.4205054796803
-530.5887050870829
-499.29076093884555
-665.3526280749759
-1051.6942557889292
-642.6701810956578
-526.8701563162855
-1019.9807994952455
-996.8059439643644
-698.2325009346046
-924.4427020067982
-834.3573970275158
-1065.7551285134382
-764.049998564525
-520.275297670168
-432.0085401368846
-797.989266585296
-400.70617200240866
-521.5488266053352
-792.8381035228253
-396.5063153875296
-531.5111148527908
-394.326284815237
-794.865646986287
-521.6499720854845
-921.2482828514737
-790.4001055050189
-1090.878771801632
-654.1623416590479
-937.1870899251741
-899.2866458641472
-657.8897916714797
-861.7008014342889
-791.148104145552
-663.9457932004518
-760.7815315516127
-794.2210231679368
-904.9398377539815
-1085.5495858786321
-559.3731500759621
-855.799504833798
-920.6606210965052
-878.7335509600139
-527.4898293775536
-776.0976293718713
-1032.1560785527688
-937.0281155506153
-1249.0890829857192
-557.5757845764781
-1030.7413181835177
-1026.0223602002784
-1139.5375357787236
-1343.9722439644413
-1045.1298866834338
-564.2721522863208
-791.0119616688169
-1064.7984358587687
-832.6848760321511
-582.5329461869023
-528.3601171889236
-626.01824120065
-1143.293713379407
-669.4463359377977
-1197.5317197808633
-1342.3019318915365
-659.6328344591197
-407.36169852514587
-601.6546846097557
-657.327984811522
-523.7110344070563
-815.0278500348606
-1020.1555220378617
-668.0284095055775
-526.2604791591367
-1168.4315503099992
-802.0108613875888
-531.3399174709288
-1097.9962656930609
-525.3862990557916
-1164.5507537598833
-1166.560988163541
-260.24010355383547
-791.6943282024289
-657.0924908186943
-765.5135448690629
-790.2210411296554
-962.2218114511869
-397.21864946500574
-1079.060991423986
-530.1419307171519
-946.13682718876
-1103.2879627157402
-533.1875687491771
-674.3383156834801
-521.8372404402122
-661.9911322104285
-394.46204305884135
-543.3095814837995
-535.6040522196444
-1071.4245515630287
-663.1772149700201
-1065.6646503493043
-1063.1115099312024
-939.0587716232717
-908.2199970736791
-546.4229143420106
-683.0637274146281
-496.2638724254576
-808.87631478143
-826.1832156350001
-532.5953067417026
-429.1540580573803
-991.4833353701239
-438.33578316039404
-682.960233794776
-270.65836279283326
-970.5205751478096
-819.5725866151092
-688.0821502838486
-805.5868118535149
-534.8467723977794
-535.8395258880219
-781.5548896874415
-642.4161322742801
-1342.2837292667086
-761.2898806262615
-677.8607098088951
-410.93257850929075
-270.68527664875546
-388.35496557296443
-1281.348599987648
-419.27901990668965
-391.00346642373177
-1110.5640030920865
-1179.0734165206459
-1121.6756407000826
-793.1668429235738
-1065.6148612366874
-794.8477001457231
-906.5747333688829
-922.1567310216027
-945.3167994312664
-979.2249124278305
-826.2908216648345
-668.1510279629293
-1224.4505898923828
-799.9138765954012
-1781.3647602730002
-948.638619777369
-1184.918137126652
-1112.6580669242949
-1089.1942030440628
